AD_wx (rad/s),AD_wy (rad/s),AD_wz (rad/s)
7.274485742930834713e-04,7.249011130549261155e-04,7.264296100095554622e-04
5.118524395648703200e-04,5.145191500925544448e-04,5.148304190671369783e-04
4.180692198280443021e-04,4.171366299158312191e-04,4.210395498424596540e-04
3.620442276402467728e-04,3.621690668957874338e-04,3.634007405242007131e-04
3.234687728858642907e-04,3.246571558912233297e-04,3.241145861845070968e-04
2.957103101208221696e-04,2.962163665983544541e-04,2.979983794738885663e-04
2.739659579340799700e-04,2.755457514337933682e-04,2.745150820734260414e-04
2.566747947277485376e-04,2.570287251931914333e-04,2.559760977030384665e-04
2.432162289982062317e-04,2.444453701414125101e-04,2.440786820655903712e-04
2.307395270921194503e-04,2.298786454740953534e-04,2.302576482725364698e-04
2.196827580080524460e-04,2.203357606360629756e-04,2.190294996405753932e-04
2.106651891595829251e-04,2.105897902850527434e-04,2.114542763611912814e-04
2.007786044174334286e-04,2.010366657801065601e-04,2.020075116561942255e-04
1.921032777665423520e-04,1.965864700428431402e-04,1.941691354735842860e-04
1.873081593243149340e-04,1.906332054799070178e-04,1.885445136628951125e-04
1.820497749568084599e-04,1.846278324989002802e-04,1.827373277888648265e-04
1.760064294511914408e-04,1.789699781133870379e-04,1.772260195114432155e-04
1.718621405823026371e-04,1.722133653887370343e-04,1.749355018860641257e-04
1.663777886922837329e-04,1.682826929141163427e-04,1.694115806293667518e-04
1.616397824929395187e-04,1.655316566500141602e-04,1.633059382216437230e-04
1.561942707967339296e-04,1.616648244076878977e-04,1.584262067874490389e-04
1.552243085084025300e-04,1.565848066662250862e-04,1.552035650622398896e-04
1.519175662936190965e-04,1.525510400454412844e-04,1.537888913330744589e-04
1.497582794361865092e-04,1.509802908551519422e-04,1.503732282339132734e-04
1.465848354806368811e-04,1.461695802139486124e-04,1.458092400864640823e-04
1.433719984517320661e-04,1.443185263345267942e-04,1.459352990213275874e-04
1.409363900402877540e-04,1.410023173784311968e-04,1.391776733848810175e-04
1.382438975469165614e-04,1.418042444485936773e-04,1.387821042084202950e-04
1.362453695860047658e-04,1.359952885002751034e-04,1.363143640032579923e-04
1.335086732350488823e-04,1.325255431790496271e-04,1.347139183074887083e-04
1.316641976221458936e-04,1.318517519428534100e-04,1.307239009613727970e-04
1.292867164492282541e-04,1.312952982251620090e-04,1.301916744942155401e-04
1.260930419507804150e-04,1.281329982064281184e-04,1.264860762008549876e-04
1.255094615585427089e-04,1.264151390221505641e-04,1.262046944433809870e-04
1.256230583108005510e-04,1.220345294213752061e-04,1.232235054779244057e-04
1.206176965510489233e-04,1.209613460561241550e-04,1.228279876331251795e-04
1.188724345573472153e-04,1.212636531167233904e-04,1.198276915527279548e-04
1.177724012502904638e-04,1.170183745001334699e-04,1.195519221238580465e-04
1.175578911178611958e-04,1.167970115407949581e-04,1.194579193924450746e-04
1.145227632950653496e-04,1.168746740726679965e-04,1.142899266103877061e-04
1.159569479827239760e-04,1.140743342186488561e-04,1.136814645561314084e-04
1.125989916938873500e-04,1.115900362528471671e-04,1.110815791586968740e-04
1.110021295085887816e-04,1.104704545592624003e-04,1.099184506910033166e-04
1.121313419562296231e-04,1.065816845406367553e-04,1.094684714777439342e-04
1.103807571905300811e-04,1.095322521596828988e-04,1.082854174358266388e-04
1.070673226815042483e-04,1.046957329768513601e-04,1.063471122864056002e-04
1.078974763314044283e-04,1.053476258752398517e-04,1.055532383887734945e-04
1.056345007985385421e-04,1.033125690894819626e-04,1.064721599871548105e-04
1.043161695469777846e-04,1.041989243233731118e-04,1.035844485855224770e-04
1.048351218291576647e-04,1.020161687574471242e-04,1.028892864231313576e-04
1.027181185973717657e-04,1.019873620584526203e-04,1.018092460096057535e-04
1.020038936070540817e-04,9.943312013196452443e-05,1.021135237084277422e-04
1.011786049392956229e-04,9.851533355323295463e-05,1.010274085949021416e-04
9.986980367297379425e-05,9.581951845176965967e-05,9.918814727892019255e-05
9.991739879862101062e-05,9.506032894106609152e-05,9.736058098320044885e-05
9.936767731000773418e-05,9.332677497559685941e-05,9.631265410219327602e-05
9.974200200566381823e-05,9.515345901307378155e-05,9.820138798861694635e-05
9.541424088436226668e-05,9.270452254005783952e-05,9.412740708173998236e-05
9.572476559356472067e-05,9.197918039319123772e-05,9.330593607527220190e-05
9.523132570373578842e-05,9.231825760064367599e-05,9.279193682322249895e-05
9.349302755131853404e-05,9.199439037750698628e-05,9.237725647901189746e-05
9.429370036329113832e-05,9.000600134197207097e-05,9.190545788747620762e-05
9.218489009370814087e-05,9.198914467049211464e-05,9.163264989782993479e-05
9.153368236405586347e-05,8.831844733304064921e-05,8.944396102856222149e-05
8.951563055523173950e-05,8.831652191805408961e-05,8.995554849094647030e-05
9.213729466291403910e-05,8.642283434309284507e-05,8.987096846579375803e-05
8.901783804200191492e-05,8.642977424473427908e-05,8.794823434492701428e-05
8.902029573101941009e-05,8.696876468755226398e-05,8.805937186491279622e-05
8.605260034638392895e-05,8.543685114697263162e-05,8.755057669438853264e-05
8.846834824069507708e-05,8.478849430144697096e-05,8.482185120273932248e-05
8.707978958986796014e-05,8.388320475602385924e-05,8.488285584600233546e-05
8.542198130831388507e-05,8.202554022910902101e-05,8.548598098795923942e-05
8.596439369878976125e-05,8.286395211270596018e-05,8.569886403604758964e-05
8.310032899363348408e-05,8.099666381813200896e-05,8.209454413354969103e-05
8.356248730736108652e-05,8.353577499548016339e-05,8.327113632911204431e-05
8.367983991336284174e-05,7.979951102231516160e-05,8.411644421226058179e-05
8.315938186976360163e-05,8.181698276312045291e-05,8.296357613451123150e-05
8.447673599454492716e-05,7.896792375950450918e-05,8.305625193094393305e-05
8.288902478566254832e-05,7.904614646828758706e-05,8.200360523302609812e-05
8.357402732223249910e-05,7.948911562479348274e-05,7.998069897954312643e-05
8.309926282277622261e-05,7.710966561511942824e-05,7.962356670328903845e-05
8.060527413445603927e-05,7.764700337753244945e-05,8.167586565023834640e-05
7.840237496081693853e-05,7.741116778944113564e-05,7.775217716335817227e-05
7.970649957546045283e-05,7.638205788387998239e-05,7.962510486303262913e-05
7.928326812191576227e-05,7.773195950263075526e-05,7.728794927531698351e-05
7.772325385869602830e-05,7.636311322986187502e-05,7.905372059923306525e-05
7.775187296599931437e-05,7.429957066894832284e-05,7.932502401107285103e-05
7.798365951620831696e-05,7.423366919137393727e-05,7.613980730902526447e-05
7.619720947017739855e-05,7.351636929005485376e-05,7.562992416733528697e-05
7.473372585570680260e-05,7.397436884326947842e-05,7.678209319919262381e-05
7.665131595244389039e-05,7.360508835755953411e-05,7.748963068305045148e-05
7.593651745863522564e-05,7.246419345478935427e-05,7.560033681020031620e-05
7.561823705965362518e-05,7.388648633266252689e-05,7.539773688103768457e-05
7.247498450780310545e-05,7.501510571339193754e-05,7.390617049557091545e-05
7.468942679835050241e-05,7.424860683020683663e-05,7.378502847049911006e-05
7.390545305412330184e-05,7.244765205755667782e-05,7.222909799889423970e-05
7.439588916736774075e-05,7.244891795035550679e-05,7.325844066268540056e-05
7.326018970098162125e-05,7.309958842999467079e-05,7.340933724468091319e-05
7.313870879830581856e-05,7.284840853613225569e-05,7.289350784727945598e-05
7.298565598683117318e-05,7.324587093462733563e-05,7.064715776298772175e-05
7.396419471059589824e-05,7.269221566745352877e-05,7.140019945652725016e-05
7.195969473211793728e-05,7.255918157798345119e-05,6.970740877420975512e-05
7.214302145885000009e-05,6.899616250127602729e-05,6.954789498073881467e-05
7.192862939228527154e-05,6.978201662158461916e-05,6.868595589604479731e-05
6.962274063320239635e-05,6.881251239922486134e-05,6.930575941718927736e-05
7.221732083015671561e-05,6.905076653585197528e-05,6.959438859942610042e-05
7.034667996155400174e-05,6.847208945644355925e-05,6.906883171515369507e-05
6.898105473368830757e-05,6.796553821525237206e-05,7.143384469698558115e-05
6.809209133612129485e-05,6.783262024864818835e-05,6.959053784517279357e-05
6.948195644826014525e-05,6.678464882124155518e-05,7.040152422206203255e-05
6.698254431848560603e-05,6.610329333396184378e-05,6.731144257908991955e-05
7.120022029180115403e-05,6.625004455678074793e-05,6.813800112894534335e-05
6.803158973293373752e-05,6.667814053531714912e-05,6.636715736678039704e-05
6.801162501152511607e-05,6.660215378563979138e-05,6.798609511834359021e-05
6.961428741556839725e-05,6.703843324623579339e-05,6.558827607762946290e-05
6.701798595278470581e-05,6.524183423421731781e-05,6.738517819305806650e-05
6.626588641913887213e-05,6.641655455514289101e-05,6.750643096917538629e-05
6.854852956847324230e-05,6.660772690302902864e-05,6.405157411060595257e-05
6.600471555052344263e-05,6.688223045104212062e-05,6.675159002320815965e-05
6.757277618189427989e-05,6.574680809629267122e-05,6.534564988257548037e-05
6.641420714513561691e-05,6.568824574685771698e-05,6.546828391144494919e-05
6.588730715343188112e-05,6.395708624911858970e-05,6.592344648624078691e-05
6.567289702995886193e-05,6.425689861436719211e-05,6.421798887281178643e-05
6.655589998950641123e-05,6.519308461218459284e-05,6.657238818289377340e-05
6.578138480235474735e-05,6.307798728661545042e-05,6.456975169849501919e-05
6.550511488559989791e-05,6.517497746399804402e-05,6.729695548603594141e-05
6.628761241215768546e-05,6.383624736249611748e-05,6.611974435750188708e-05
6.567442902969869824e-05,6.235952869036519948e-05,6.450535953439634777e-05
6.430886460612293828e-05,6.345358137209142267e-05,6.381814087995412365e-05
6.445216063570788638e-05,6.454375421635333407e-05,6.493408694300884844e-05
6.379180510193690004e-05,6.266824138250957877e-05,6.419937223090172763e-05
6.404381550608550893e-05,6.206664762427912662e-05,6.383350027450314899e-05
6.425918979238770719e-05,5.860114295220461556e-05,6.330046113580303888e-05
6.492790416074698857e-05,6.175985213086191479e-05,6.201629938152530494e-05
6.158526634260442557e-05,6.032038968975804064e-05,6.252991669605743852e-05
6.213537766657553077e-05,6.355389710077609042e-05,6.064082175322553367e-05
6.484812817787040352e-05,6.146040060241006106e-05,6.342316271779495959e-05
6.166486743811139628e-05,6.272098197686730198e-05,6.498418322550457915e-05
6.213088959407643899e-05,6.148215560779180747e-05,6.055449134829245310e-05
6.571472338293395869e-05,6.027619578875523427e-05,6.256573469185781509e-05
6.095127623152512761e-05,6.182530057902743247e-05,6.052456461967587506e-05
6.110441715258377359e-05,6.159628429209915059e-05,6.119623697211284616e-05
6.165834726751250083e-05,5.777046105172253403e-05,6.044513047181932408e-05
6.024981687610426063e-05,5.892693095860423069e-05,6.175583637834859859e-05
6.228009028203192502e-05,6.003649528835069629e-05,6.062642522713658196e-05
6.026694339101789456e-05,5.885020431499438749e-05,5.923648138057568686e-05
6.084881282755341079e-05,5.945824194651598928e-05,5.836855742518794529e-05
6.078320939763577732e-05,5.775219924650340264e-05,5.995804761023298040e-05
5.946049977588285893e-05,5.973391650664919094e-05,5.780305498329081735e-05
5.849197779842787802e-05,5.826164013090795343e-05,5.871915097559545388e-05
6.164448675397276190e-05,5.818271786679417946e-05,6.021354075721720373e-05
6.008931735692928984e-05,5.780222870347618744e-05,5.936913142006917688e-05
5.860967855063364427e-05,5.962644188106944263e-05,5.831838226366327534e-05
5.786111287056028366e-05,5.849429488218375433e-05,5.885243739261974109e-05
6.064841823920282546e-05,5.823313603759624346e-05,5.893755316021261710e-05
5.999761555971179977e-05,5.787918813785894245e-05,5.913611327381384250e-05
6.017894172347791100e-05,5.753845285373349299e-05,5.808538318526142472e-05
5.934289820283974407e-05,5.825095786155928872e-05,5.789137522516774178e-05
5.967852851666608736e-05,5.510571239834641808e-05,5.635174823684251701e-05
5.944628895387915455e-05,5.655216370245295704e-05,5.683295009077639836e-05
5.953475613567867016e-05,5.669506728199199473e-05,5.852422965945272093e-05
5.983001499685053072e-05,5.658994792672353519e-05,5.533313041389450044e-05
5.989691902813007029e-05,5.680754310372484810e-05,5.687118138281165475e-05
5.629809166569703474e-05,5.506929657761747637e-05,5.527206531135220796e-05
5.782558698641951589e-05,5.516188655538856617e-05,5.577146401269745190e-05
5.647237648400993968e-05,5.316589512058297168e-05,5.621337155320699620e-05
5.694671879698160507e-05,5.554382353300464149e-05,5.579305295526509764e-05
5.800134233405583329e-05,5.326724638763427047e-05,5.715872315250135853e-05
5.699427369730866277e-05,5.512744523766374325e-05,5.638946535009187357e-05
5.649051484049473612e-05,5.690197270477506658e-05,5.503876090082715207e-05
5.678872187580416759e-05,5.512904646536259077e-05,5.728991160482428788e-05
5.523414177075779206e-05,5.441572424468915029e-05,5.656517217530662305e-05
5.574195107342168516e-05,5.512104708863721205e-05,5.598544399255413456e-05
5.665314162372358007e-05,5.296932433998491704e-05,5.564413885305487245e-05
5.511193013383035733e-05,5.556113989600423066e-05,5.587063716285931741e-05
5.516659116639217202e-05,5.483044993600839505e-05,5.327953111965244522e-05
5.565990866858972993e-05,5.436576648168336533e-05,5.663980192259549147e-05
5.687545079851521622e-05,5.293810867359418531e-05,5.520441266135411190e-05
5.406076849233994869e-05,5.329723316343038458e-05,5.185477219406068314e-05
5.406515325389999290e-05,5.288230659400556096e-05,5.508933698637417649e-05
5.508297828824261581e-05,5.174355237232445090e-05,5.444340932638094344e-05
5.384260952522428994e-05,5.429298802118389820e-05,5.374580925922208132e-05
5.107207782748977506e-05,5.347772668470928363e-05,5.339782544304951483e-05
5.642192681447257430e-05,5.194250935141031127e-05,5.261581757017585618e-05
5.609972183656027089e-05,5.295983847742021856e-05,5.490150832817594059e-05
5.456780984924733619e-05,5.148441311338148587e-05,5.284886109633427830e-05
5.431327110653419459e-05,5.206316464426367620e-05,5.458916066250789676e-05
5.471605960703193231e-05,5.267277142936576019e-05,5.264104069460983162e-05
5.349453860755283807e-05,5.277678729262046451e-05,5.401476759592868123e-05
5.313259774346037269e-05,5.212922831380632565e-05,5.173236700949132534e-05
5.230459662123144256e-05,5.233101549499204642e-05,5.282655422100699045e-05
5.377552503797151338e-05,5.133405445641311352e-05,5.218798391753033656e-05
5.228751945819924295e-05,5.112031848336684762e-05,5.178097915068322461e-05
5.316661021326714217e-05,5.104987591789101296e-05,5.378520591903809491e-05
5.350135242272284893e-05,4.934747391049879587e-05,5.251858020224735199e-05
5.366215398426472667e-05,5.019661539964400960e-05,5.292526896509456658e-05
5.174604635886299907e-05,5.132703820917989120e-05,5.144230092706937547e-05
5.084572560860230883e-05,5.105705281453158645e-05,5.271191943585253737e-05
5.110547639557968196e-05,5.058153415953447107e-05,5.208069850191844510e-05
5.194094826135032248e-05,5.079197437022594440e-05,5.045941979042189193e-05
5.081322995709965014e-05,5.139307677973832967e-05,5.144991305449778037e-05
5.364838025299518694e-05,4.973082910313034161e-05,5.230384198412103293e-05
5.163322486327171868e-05,5.003706544031942533e-05,5.085034052657113636e-05
5.144221452368231940e-05,5.067403149797950710e-05,5.090037852212457776e-05
5.084210352686104636e-05,4.882395630447023999e-05,5.035226352518637477e-05
5.249650198726924394e-05,5.088985395345297432e-05,5.285884490711576216e-05
4.918970337267473980e-05,5.072758007656278355e-05,5.166424308754796686e-05
5.042974363314972868e-05,4.892164798659408471e-05,5.129213829776166648e-05
5.137620121421704528e-05,4.935692979521283461e-05,5.094232050310685709e-05
5.208588630004224866e-05,4.837390363523502457e-05,4.975588272039969869e-05
5.130476423909034202e-05,4.937055131058402094e-05,4.908154782180805146e-05
5.171706649427687443e-05,4.870580974396383192e-05,4.910940744508345061e-05
4.853698060321920079e-05,4.881841690997476324e-05,5.035290589926713536e-05
5.078733977003854083e-05,4.935311563621216707e-05,4.926296903318867635e-05
5.079497873346606009e-05,4.764337941398171628e-05,5.122648611198744899e-05
5.032942349506040936e-05,4.803307020756635601e-05,4.960615658977784591e-05
5.039941198008411085e-05,4.737900479344304885e-05,4.856811570377456415e-05
5.044707975649636303e-05,4.976427804187436840e-05,4.910501556035469300e-05
5.171616048871091419e-05,4.867332995822071896e-05,5.038423527528864901e-05
5.169478677453723383e-05,4.635804714987264179e-05,4.873389689775746799e-05
5.033566962567579604e-05,4.991566804064878550e-05,4.901401464718789709e-05
4.804999078442416988e-05,4.730497765992617356e-05,4.920014672431487072e-05
5.028403427406512798e-05,4.687797615214095627e-05,4.768949438143289013e-05
5.153127201286618905e-05,4.746731961265600747e-05,4.748929330407270568e-05
5.070669836171476927e-05,4.592076745648647783e-05,4.848060858394967042e-05
4.951713824349082650e-05,4.798868032812910047e-05,4.858990626861502880e-05
5.098673163935395577e-05,5.011670518823007503e-05,4.896524627080140282e-05
4.916798203456896460e-05,4.774059442607213994e-05,4.747570604782932801e-05
4.932936626345481518e-05,4.797159340593638692e-05,4.851424101262917580e-05
4.737439062597562117e-05,4.727035348664568201e-05,4.718515164698033589e-05
4.828423720291926048e-05,4.566840162581142873e-05,4.745501695686839657e-05
4.854372140653926169e-05,4.766439225039036803e-05,4.699454744402485634e-05
4.845695260028656690e-05,4.714854203514324708e-05,4.519081313644052449e-05
4.883014223518663296e-05,4.538407773912307935e-05,4.845487976325716555e-05
4.999031418330328276e-05,4.521927980356418381e-05,4.708155519762477064e-05
4.797908067073002026e-05,4.592226365406971885e-05,4.708884242032190283e-05
4.863728587487133048e-05,4.743259476937809228e-05,4.595131341852203927e-05
4.865074565074449465e-05,4.693260049549733201e-05,4.683600236418078802e-05
4.997660627265271098e-05,4.449525375718784960e-05,4.553669303104596126e-05
4.623959277781483954e-05,4.536122939593992823e-05,4.459556329561376931e-05
4.715380696804508055e-05,4.508645842923655607e-05,4.525736078971107198e-05
4.590944881103915212e-05,4.478748365562886934e-05,4.504274938147163746e-05
4.836457464301548360e-05,4.451772816955834280e-05,4.583925045472489766e-05
4.616121821978830941e-05,4.512698384098603690e-05,4.579983236360767203e-05
4.755945953276303464e-05,4.480852064576149100e-05,4.673413013714977139e-05
4.688227400613766740e-05,4.307416877619075802e-05,4.427733754521574663e-05
4.935541295028193819e-05,4.572065232969324924e-05,4.595156230306426010e-05
4.700120971601365837e-05,4.592307030200338901e-05,4.468223590975858942e-05
4.708929399226495629e-05,4.438891466111966039e-05,4.725120261068877073e-05
4.615270666928079885e-05,4.686832424877962662e-05,4.504775234544754881e-05
4.758696580023085446e-05,4.511929804558915773e-05,4.561215331813075688e-05
4.723349580384723738e-05,4.361458496157638300e-05,4.810461814258498226e-05
4.723060424370562841e-05,4.245641332302993746e-05,4.617566387104185001e-05
4.420735045229035515e-05,4.524177302322886609e-05,4.714303778027447274e-05
4.731901206018435899e-05,4.558047111305443182e-05,4.422632527623587091e-05
4.513319817502520767e-05,4.258682833001981157e-05,4.618950568170302829e-05
4.621389217684012307e-05,4.421184752438610808e-05,4.647822191508184874e-05
4.771581427665660670e-05,4.341804828694378280e-05,4.431122373135934272e-05
4.303988773518692775e-05,4.391781263088050786e-05,4.431791033379007568e-05
4.559771256928612588e-05,4.141715578911129344e-05,4.485843386338250012e-05
4.625746209217619030e-05,4.418034667073225533e-05,4.423958333691606489e-05
4.590245792795054553e-05,4.460857458378879596e-05,4.465970316615482002e-05
4.470841418265824918e-05,4.463185970727729827e-05,4.470069321664884036e-05
4.644363708300613025e-05,4.328336638999812628e-05,4.435110392056925555e-05
4.629177907755992579e-05,4.508999536306922427e-05,4.506473519956661863e-05
4.476699496967914086e-05,4.260397963693140854e-05,4.470212588194819611e-05
