AD_wx (rad/s),AD_wy (rad/s),AD_wz (rad/s)
7.282551004845442145e-04,7.271318218708459034e-04,7.274072210702041451e-04
5.144255472499663666e-04,5.139696025542413909e-04,5.127313393049528351e-04
4.204280497946356258e-04,4.196496097968997361e-04,4.201668688054592993e-04
3.633859641911781567e-04,3.637592174196074488e-04,3.615079582975882621e-04
3.214316209320582725e-04,3.250282180821867958e-04,3.235517415885345513e-04
2.964950424689878259e-04,2.972064451210485272e-04,2.952666962323077836e-04
2.735645894345866010e-04,2.771723886755756198e-04,2.744933491286232039e-04
2.573283424561659369e-04,2.580988309443433973e-04,2.553800774378162347e-04
2.431384818890595825e-04,2.424345402328856650e-04,2.407711129606431748e-04
2.300837214671053903e-04,2.320525393472661015e-04,2.294179101633345814e-04
2.201207936869065888e-04,2.179204650854425437e-04,2.189280424297169005e-04
2.113622254764404023e-04,2.094521756786283284e-04,2.078565064528463727e-04
2.029835586770986741e-04,2.029072237773208386e-04,1.969058992648664152e-04
1.970638719499884564e-04,1.952974479192065647e-04,1.915424644490689972e-04
1.893473057775043114e-04,1.893288526608929555e-04,1.875888237384762815e-04
1.857441323481588019e-04,1.808115096031343363e-04,1.796614024398811836e-04
1.792784061867688447e-04,1.784188653677347847e-04,1.746985579739126658e-04
1.725152091618269753e-04,1.725805095281974166e-04,1.701665332026089340e-04
1.683151914645664409e-04,1.668383487027979368e-04,1.651063957912595088e-04
1.628767889712944147e-04,1.621500708431358934e-04,1.633132442480948938e-04
1.610353881406533720e-04,1.593081111353509898e-04,1.587071957257825969e-04
1.558712193712640188e-04,1.543193707792664046e-04,1.543310240006189396e-04
1.518832525419375125e-04,1.513573644608919076e-04,1.486783070498547685e-04
1.497042158802250073e-04,1.491585727475690010e-04,1.492897987056682402e-04
1.445735282283665648e-04,1.449618335098611847e-04,1.474153103561446981e-04
1.429922447171152133e-04,1.432980837342621549e-04,1.407918069252113566e-04
1.420601421770372927e-04,1.400773233133193753e-04,1.416869314455540129e-04
1.380639407595229452e-04,1.372535665323199668e-04,1.361291354402951255e-04
1.358680832641505733e-04,1.350757666344752118e-04,1.335367492833854628e-04
1.343440350325336501e-04,1.335375961206003437e-04,1.332958980718594089e-04
1.318165706591558749e-04,1.329869070948946441e-04,1.309660103293466100e-04
1.288834618169555190e-04,1.273937897296958141e-04,1.271934215983168859e-04
1.284201819131006791e-04,1.258877453321393595e-04,1.269367177526130601e-04
1.262658199853488792e-04,1.251575517320078536e-04,1.258285810439276823e-04
1.236965779050089114e-04,1.226465527079348579e-04,1.232701478648674353e-04
1.214710989005135820e-04,1.237481883055761237e-04,1.208899445966210156e-04
1.204423849853339460e-04,1.167633005188263562e-04,1.194094781102265885e-04
1.213145159230344351e-04,1.185653625510074048e-04,1.183040308748739984e-04
1.192272135204435699e-04,1.180099988831116020e-04,1.153898142815379656e-04
1.151228794578022102e-04,1.178411409691090789e-04,1.159154041862947619e-04
1.139138123164287406e-04,1.140001319452602795e-04,1.116436135826657838e-04
1.145805734915466547e-04,1.110675354144923226e-04,1.112214120372062863e-04
1.112022619694311707e-04,1.115439153067048725e-04,1.111757050370849935e-04
1.112351794978820813e-04,1.121323622430556367e-04,1.102254349718577767e-04
1.132501642269103791e-04,1.100004990779341756e-04,1.078068882101794690e-04
1.081327949308741380e-04,1.085340008907618851e-04,1.077600511430740134e-04
1.076991985895700950e-04,1.081317721225159742e-04,1.062202394119813654e-04
1.066475987530911995e-04,1.059691390358135033e-04,1.048399340037313210e-04
1.056480288697922063e-04,1.050115179116566371e-04,1.065205784081452357e-04
1.026048147869498194e-04,1.049642168941824713e-04,1.024030250784628001e-04
1.028351999177078363e-04,9.937235317135923308e-05,1.032190090734220561e-04
9.984811808337413022e-05,1.001990528532795133e-04,1.013599618475016870e-04
1.005807135078751272e-04,1.005992410529029974e-04,1.003976424711747797e-04
1.002754034264977454e-04,1.021943344611026981e-04,9.814482074801199438e-05
9.983588111134147674e-05,9.893570886129905966e-05,9.926149378469241241e-05
9.832823448915491127e-05,9.806317436302180958e-05,9.702395337070065867e-05
9.911217840987985575e-05,9.751193409450262934e-05,9.529360367697168948e-05
9.567803416648673891e-05,9.562018602042455097e-05,9.459683000015787753e-05
9.683781630447379932e-05,9.683816945617138179e-05,9.633073731811596645e-05
9.397581618595487508e-05,9.345153988953303341e-05,9.236210058415678830e-05
9.453294263158743276e-05,9.514639714910579766e-05,9.305770112193854243e-05
9.153424392001349524e-05,9.351165187248586090e-05,9.076839031917161905e-05
9.431737189217346748e-05,9.226655129310419904e-05,9.164439885602350486e-05
9.211040663730221049e-05,9.126016741405624101e-05,9.196741177404125166e-05
9.166352693613283623e-05,8.984932935566651872e-05,9.140137962593795906e-05
8.898371363624685564e-05,9.132548551290708332e-05,9.110926913413694439e-05
9.073377099458538176e-05,9.070369818235260527e-05,8.965773680210499053e-05
8.701837200080505088e-05,8.924906290737841545e-05,8.776906456036317875e-05
8.864611141830598261e-05,8.921475891733034961e-05,8.735513905491412842e-05
8.728597944100967591e-05,8.766361088299993748e-05,8.774688932641048372e-05
8.486840655646990094e-05,8.734425750220621283e-05,8.627501295866685086e-05
8.670889641041258417e-05,8.759348923476324245e-05,8.839042830823059681e-05
8.608000606480919342e-05,8.644353841663293225e-05,8.444212370110863058e-05
8.560954875753352717e-05,8.528584568537144308e-05,8.599126810294038532e-05
8.351013570616968185e-05,8.593626447097026870e-05,8.360067034781849978e-05
8.346725982071655594e-05,8.512196755995895202e-05,8.388153779594336324e-05
8.372423169352889174e-05,8.419219157168345317e-05,8.288299434502504346e-05
8.142267294557603422e-05,8.357099592049943137e-05,8.362594203530857853e-05
8.107615142944561010e-05,8.340461343386777857e-05,8.265383846978891652e-05
8.089409505856484889e-05,8.266669532322324493e-05,7.986109875443098355e-05
7.801021040049617265e-05,8.186603966152050595e-05,8.074356926191556970e-05
7.964069074292264776e-05,8.069332386576076946e-05,8.182160730039290475e-05
8.086230750157048428e-05,8.159841539272228144e-05,7.987472566291577180e-05
7.951086130414867874e-05,7.964171544877986946e-05,7.897012436409104458e-05
7.912617905103449807e-05,8.017464334753436638e-05,7.935405148797844465e-05
7.694449071605413617e-05,8.121082704318361562e-05,7.905724821850403149e-05
7.761734583815917544e-05,7.747495673565413102e-05,7.787329654863733559e-05
7.874814348221268227e-05,8.061693213801722024e-05,7.761715135054442812e-05
7.494642884447285573e-05,7.732130925668020136e-05,7.605834049894262235e-05
7.734740395156599376e-05,7.764422736943075510e-05,7.676715561529242672e-05
7.806024573663101671e-05,7.732924946634926169e-05,7.607801034465727229e-05
7.321752152389911293e-05,7.778073166708358637e-05,7.507243199596688710e-05
7.554038492581535518e-05,7.540742739542055976e-05,7.418522478537775255e-05
7.562262090447482337e-05,7.706381793867523634e-05,7.407624312470945192e-05
7.451041870306000597e-05,7.447114654856116774e-05,7.427210494215195631e-05
7.296811514164115904e-05,7.553811217460942547e-05,7.381225066098700670e-05
7.115081931785449568e-05,7.350622909461134780e-05,7.318620433069373621e-05
7.296374914197094981e-05,7.400121135973887270e-05,7.276402086097063517e-05
7.274060134040018883e-05,7.449324551508672884e-05,7.625214261672879821e-05
7.168100747056528404e-05,7.435947449002916054e-05,7.315886019590183331e-05
7.094207229106100842e-05,7.385405763154856906e-05,7.289160825994549437e-05
7.298198096940670975e-05,7.123055343896317663e-05,7.187945631934482607e-05
7.119065331387734957e-05,7.456657185696175829e-05,7.064995215370904779e-05
7.057871247737748459e-05,7.166550299042170576e-05,7.033135276253549262e-05
7.098475192125484391e-05,7.214755342410648117e-05,7.181531639412109690e-05
7.042118258339359008e-05,7.093000022152276508e-05,7.147285224277126405e-05
6.834571913960480979e-05,7.169056252045094145e-05,6.927869482852216183e-05
6.864384506068340350e-05,6.987408563867238457e-05,7.073008117521107957e-05
6.843297130458962673e-05,7.114923056226121084e-05,6.863159380971713727e-05
6.757275209861625127e-05,6.982237554461525871e-05,6.925465529206760885e-05
6.890113763302945437e-05,6.999434441740068097e-05,6.822811984218455457e-05
6.878938262238307210e-05,6.867882741774140062e-05,6.772283332841084699e-05
6.625358817430556974e-05,6.854973273761369142e-05,6.943900163558565266e-05
6.601299602275124609e-05,6.741355382201465608e-05,6.714098905142003933e-05
6.837960559146405090e-05,6.883955405462927968e-05,6.899910255471354938e-05
6.643651509013710017e-05,7.110670377106760674e-05,6.863630654020405283e-05
6.753976781164890120e-05,6.795544407424815390e-05,6.800490852415034247e-05
6.607149356561911873e-05,6.565213993577809464e-05,6.875534445474876970e-05
6.691282929338073730e-05,6.739813438794522407e-05,6.684224349495857930e-05
6.660719743665561481e-05,6.801622159564636738e-05,6.773418847709031135e-05
6.472181812250238071e-05,6.689488679670114893e-05,6.537891479753214199e-05
6.540920223048753385e-05,6.728802503611830334e-05,6.569380169120880267e-05
6.666940540580995058e-05,6.643183623679919545e-05,6.434094257807789667e-05
6.572990433485308972e-05,6.489009346989425646e-05,6.344613910494082505e-05
6.343877026850238115e-05,6.686033659357776466e-05,6.424419158510259016e-05
6.649849571554750788e-05,6.552145720862645288e-05,6.344122344999932593e-05
6.400716684693946159e-05,6.603915878618066510e-05,6.483970239515146193e-05
6.607202557506028546e-05,6.366616410145473862e-05,6.412233698025947249e-05
6.330831647748439393e-05,6.376065759140531891e-05,6.514540450224371273e-05
6.287979376894710230e-05,6.582691543916193713e-05,6.457123125200845727e-05
6.222176185857275586e-05,6.522563739901131134e-05,6.196869602783228040e-05
6.315101845188287677e-05,6.599903454929485151e-05,6.362636110526581016e-05
6.131790538587504591e-05,6.445064930752793220e-05,6.182839696798062749e-05
6.313212905075290388e-05,6.473975224275848575e-05,6.218077671941075774e-05
6.193761424286661245e-05,6.166048287342614257e-05,6.537095047875148327e-05
6.030640315611790698e-05,6.311047493526622857e-05,6.114429191582646829e-05
6.425035898426477584e-05,6.345496104869436705e-05,6.208931320338074641e-05
6.064991857237978266e-05,6.418608683872726098e-05,6.353218650887153957e-05
6.175736224502021982e-05,6.367413989045174851e-05,5.823032793021948821e-05
6.150169365799771964e-05,6.306028988140179687e-05,6.073098014888442150e-05
6.014405186486780023e-05,6.164142997751596896e-05,6.208940289657055209e-05
5.797714107405003574e-05,6.165284962793740717e-05,6.054961759035252844e-05
6.186880920182383215e-05,6.045273412120719374e-05,6.025445406556053784e-05
6.160763087653259578e-05,6.216757877775204628e-05,5.952428644665415809e-05
6.072765181327666222e-05,6.108409620812284854e-05,5.989279343190136569e-05
5.895196946307150541e-05,6.105359242807214799e-05,5.828586012518241754e-05
5.810203108551524544e-05,6.281617439179606446e-05,5.933158366656227090e-05
5.809127743597814538e-05,5.978078111095200888e-05,5.786699477646290921e-05
6.133355639883263728e-05,6.293572660035833758e-05,5.948823877962249561e-05
5.782296712154322575e-05,5.975446834353209197e-05,5.742498860369604189e-05
5.872141898017367790e-05,6.101071640982486257e-05,5.995542285756917531e-05
5.845984603191552864e-05,6.112432059214478373e-05,5.687419774391989642e-05
5.767979647600185238e-05,6.039642043369331496e-05,5.806363595633628777e-05
5.961322752268535731e-05,5.846909312589439834e-05,5.832473578513433060e-05
5.775282439238133079e-05,5.967859708812841809e-05,5.703513808390014089e-05
5.849776367492394289e-05,5.910894945921259675e-05,5.673971094901966695e-05
5.676501442651053292e-05,5.899536490055161527e-05,5.818679684120203923e-05
5.866855647603440928e-05,5.977475040554650591e-05,5.836400988403437896e-05
5.673195300040367189e-05,5.758142472138799277e-05,5.799227195527964241e-05
5.681343264563584928e-05,5.990354764434169862e-05,5.631961265653881676e-05
5.502866494848896670e-05,5.670815956509154057e-05,5.774063948374953616e-05
5.565773339359462584e-05,5.906416579608555567e-05,5.554340334255887621e-05
5.626996274905103314e-05,5.942143142690285522e-05,5.546654845901900538e-05
5.513108279826245932e-05,5.794538147302379831e-05,5.938508403315760403e-05
5.679670035426873619e-05,5.870431131195845648e-05,5.695639785437551757e-05
5.612636452247608506e-05,5.803466804210925464e-05,5.430514054120361649e-05
5.540675047206061223e-05,5.871377437695184267e-05,5.362827610154419065e-05
5.739109039835669428e-05,5.714190422939051525e-05,5.589960474232380516e-05
5.523850764593400572e-05,5.914180639968259946e-05,5.572020515512512192e-05
5.416104070672607450e-05,5.864208455380123542e-05,5.676537849841738485e-05
5.650458264104237985e-05,5.752091728436164553e-05,5.574800356794825301e-05
5.344248535345429347e-05,5.840158282755500868e-05,5.477075589737144214e-05
5.436781486461049001e-05,5.707060194753368237e-05,5.532373403040829975e-05
5.621149170008767678e-05,5.735238360799779328e-05,5.568728594347196163e-05
5.566827982436044973e-05,5.716876513259543693e-05,5.658779674315064762e-05
5.609198631718773591e-05,5.727282504220896633e-05,5.459064328525490927e-05
5.472169774478104079e-05,5.639862094265618440e-05,5.390440421322491440e-05
5.377092897514277101e-05,5.585898652025877303e-05,5.360711298705105428e-05
5.379023201079364560e-05,5.512294245956560153e-05,5.509230121867377000e-05
5.571310731437028755e-05,5.556166380529030212e-05,5.314743675661773385e-05
5.212115467993963779e-05,5.540696721620773780e-05,5.442608668026107640e-05
5.525524171270768212e-05,5.663534223472459114e-05,5.272957549653309458e-05
5.554173485991834806e-05,5.471672728286669133e-05,5.171430481185137091e-05
5.217832545261844187e-05,5.531174235492540157e-05,5.065163985727741234e-05
5.323614253249138055e-05,5.607019745896494044e-05,5.192785476413760249e-05
5.078417534818303604e-05,5.473991601680484019e-05,5.313744541498186479e-05
5.224965807710595193e-05,5.437166639226819511e-05,5.348222842507600113e-05
5.138891330895107380e-05,5.501419257610060657e-05,5.443929392939453457e-05
5.361195512167840171e-05,5.367824328472702993e-05,5.356567329476708678e-05
5.170747419398532538e-05,5.327697058521919298e-05,5.316089623789158536e-05
5.019091164297549110e-05,5.467416716527857996e-05,5.226927324797339198e-05
5.180329980266854949e-05,5.574494402100818152e-05,5.127133948856829723e-05
5.115520613642923612e-05,5.362071392176733707e-05,5.314160778316503542e-05
5.034730887553210950e-05,5.229132329949161387e-05,5.226615740370222507e-05
5.058466723565903335e-05,5.298295865377908287e-05,5.295311046620255699e-05
5.009128842972669540e-05,5.251213809857812692e-05,5.344387128702145001e-05
5.048284143242095427e-05,5.485085214252608931e-05,5.128893984303348419e-05
5.162798002315422124e-05,5.459804892738130612e-05,5.152522828242032992e-05
5.094794031543673987e-05,5.399786272237679183e-05,5.190281176858818645e-05
5.012436302632647807e-05,5.232462115805204626e-05,5.115785832950066017e-05
4.994905064648031507e-05,5.317606561709902147e-05,5.011853449167569464e-05
5.054092287938811783e-05,5.428553319309214890e-05,5.080417951925014964e-05
5.102230560489324601e-05,5.421975541310602103e-05,5.123702907169972305e-05
5.233570494677229515e-05,5.279544711473833896e-05,5.212679541516381741e-05
5.044841857122372449e-05,5.165507980169172289e-05,5.226737482418384987e-05
4.841071418905527250e-05,5.260211323887601487e-05,5.134908243133787774e-05
4.717771847609252342e-05,5.214084359748101332e-05,4.992473592701633959e-05
5.050361182405420260e-05,5.215800287044706888e-05,4.946564303818060690e-05
5.037793510176153539e-05,5.129612229413866756e-05,5.000722217936509286e-05
4.893936784134362086e-05,5.103212087730910003e-05,4.988983592679718646e-05
4.777113876939521311e-05,5.297444837206453824e-05,4.794783439682673813e-05
4.868322225020471183e-05,5.110752182564502207e-05,5.064363070218535931e-05
4.870196272658183822e-05,5.066852796158797173e-05,4.988027603510691881e-05
4.759546055283346040e-05,5.123482623013313658e-05,5.002864446976123121e-05
5.073108570245627331e-05,5.300188368325778354e-05,5.009502645761519955e-05
4.954402414505516909e-05,5.154145047624082986e-05,4.928415088281467649e-05
4.834116792407421265e-05,5.189742193244871151e-05,5.094895139446393696e-05
4.770702044371386295e-05,5.111981822848671802e-05,4.857519596706026200e-05
4.933845837168647383e-05,5.270608370224304641e-05,4.959367601193934296e-05
4.759471689061635396e-05,5.113265746371999961e-05,4.877545991919989211e-05
4.663315688326104003e-05,5.183456190554101628e-05,4.714288264921577125e-05
4.786927713642960764e-05,5.113032070016300639e-05,4.831929872013861400e-05
4.778812279988037568e-05,4.993560491664348472e-05,4.716098613708814185e-05
4.634902009196656934e-05,4.842569720317992554e-05,4.633173387722410092e-05
4.610766198993296777e-05,5.050621372588777090e-05,4.826379155452781072e-05
4.646926472487654641e-05,4.972735863723463565e-05,4.955498865529363913e-05
4.918431346012717384e-05,5.118767377598901154e-05,4.869701587827553982e-05
4.633554984640176998e-05,5.227376889375287902e-05,4.893943689745685200e-05
4.833481583791429654e-05,5.380371632444405606e-05,4.899299598529808207e-05
4.663784156443227786e-05,5.056226505695139147e-05,4.952781779571325746e-05
4.782599142426418812e-05,5.031396274094665386e-05,4.806039362175019535e-05
4.590166305498295514e-05,4.913748153561184800e-05,4.631815851540898920e-05
4.631603730938890393e-05,4.776343569723111142e-05,4.661850482689702785e-05
4.683880565105062103e-05,5.007434119634155426e-05,4.901476210886471956e-05
4.588825511602689428e-05,5.088351745733696925e-05,4.636230636043324563e-05
4.640353735052818500e-05,4.770855777007900953e-05,4.932621321340534086e-05
4.598605089662287734e-05,4.844739807003551067e-05,4.639968108178514118e-05
4.680487650538072135e-05,4.989669459401577261e-05,4.756982939726059269e-05
4.704745069216647419e-05,5.027227493520568079e-05,4.626181471111842994e-05
4.778476295092182251e-05,4.959208206920627792e-05,4.791798355100319699e-05
4.619990667453903216e-05,5.024868077431746333e-05,4.589505302859379112e-05
4.625073642739892639e-05,4.705954790106099212e-05,4.744506014256581760e-05
4.338531263294010364e-05,4.743815866162259288e-05,4.692815234331115196e-05
4.563803801457628139e-05,4.989379301295211711e-05,4.654859164399111201e-05
4.491054067088167073e-05,4.896990938011339898e-05,4.655250335463111274e-05
4.501710292075130054e-05,5.000177147321268971e-05,4.517951736929296479e-05
4.589871414335624004e-05,4.994956686338477664e-05,4.596740057091827506e-05
4.506247506653181142e-05,4.933854291207436795e-05,4.431177786059627773e-05
4.402203214826970950e-05,4.887979069097705238e-05,4.626254104430547299e-05
4.573797894914760187e-05,4.937621882266847743e-05,4.733735845771358259e-05
4.493426842949467651e-05,4.592330476869202753e-05,4.557824056733720592e-05
4.526677485509201908e-05,4.860201032259954583e-05,4.455427814196161179e-05
4.369685816220422438e-05,5.049673447428072368e-05,4.559592650134289699e-05
4.230349158207980924e-05,4.732668872428657977e-05,4.664998290167838982e-05
4.516711258318131962e-05,5.007609194057846829e-05,4.514736677514612949e-05
4.446255261812784185e-05,4.687888248312528579e-05,4.594211822168155749e-05
4.418800131128932491e-05,4.864530626784844316e-05,4.450103276968271220e-05
4.406266054121117112e-05,4.887018542234581724e-05,4.412988442381482777e-05
4.366247329547846200e-05,4.828501373590458093e-05,4.421545781302882260e-05
4.467752286119356335e-05,4.823569849351574821e-05,4.691146951666768354e-05
4.358972048043001509e-05,4.545523152728460592e-05,4.395782245920211537e-05
4.491291030320872723e-05,4.821291010196116530e-05,4.579475150866156379e-05
4.382860535578024779e-05,4.578574668443086170e-05,4.578312912484400801e-05
4.527910996146187680e-05,4.751125588144989204e-05,4.579259068444896960e-05
4.360291270330609459e-05,4.772731943997082543e-05,4.630501479765328758e-05
4.362194028814862752e-05,4.616270714321088616e-05,4.305092738691662581e-05
